Trial: 11
Speed Setting: 8
KCl per pour: 34.0 gram
Number of pours: 1

Column one contains time in seconds, column two contains the measured conductivity at the bottom of the tank.

0.00	0.177	mS
1.00	0.177	mS
2.00	0.177	mS
3.00	0.179	mS
4.00	0.179	mS
5.00	0.178	mS
6.00	0.178	mS
7.00	0.178	mS
8.00	0.177	mS
9.00	0.177	mS
10.00	0.178	mS
11.00	0.178	mS
12.00	0.178	mS
13.00	0.178	mS
14.00	0.178	mS
15.00	0.178	mS
16.00	0.178	mS
17.00	0.178	mS
18.00	0.178	mS
19.00	0.178	mS
20.00	0.18	mS
21.00	0.18	mS
22.00	0.18	mS
23.00	0.177	mS
24.00	0.177	mS
25.00	0.317	mS
26.00	0.317	mS
27.00	0.317	mS
28.00	0.747	mS
29.00	0.747	mS
30.00	0.961	mS
31.00	0.961	mS
32.00	0.961	mS
33.00	1.07	mS
34.00	1.07	mS
35.00	1.156	mS
36.00	1.156	mS
37.00	1.156	mS
38.00	1.254	mS
39.00	1.254	mS
40.00	1.312	mS
41.00	1.312	mS
42.00	1.312	mS
43.00	1.337	mS
44.00	1.337	mS
45.00	1.352	mS
46.00	1.352	mS
47.00	1.352	mS
48.00	1.374	mS
49.00	1.374	mS
50.00	1.381	mS
51.00	1.381	mS
52.00	1.381	mS
53.00	1.408	mS
54.00	1.408	mS
55.00	1.429	mS
56.00	1.429	mS
57.00	1.452	mS
58.00	1.452	mS
59.00	1.452	mS
60.00	1.479	mS
61.00	1.479	mS
62.00	1.478	mS
63.00	1.478	mS
64.00	1.478	mS
65.00	1.504	mS
66.00	1.504	mS
67.00	1.515	mS
68.00	1.515	mS
69.00	1.515	mS
70.00	1.528	mS
71.00	1.528	mS
72.00	1.523	mS
73.00	1.523	mS
74.00	1.523	mS
75.00	1.533	mS
76.00	1.533	mS
77.00	1.532	mS
78.00	1.532	mS
79.00	1.532	mS
80.00	1.543	mS
81.00	1.543	mS
82.00	1.547	mS
83.00	1.547	mS
84.00	1.57	mS
85.00	1.57	mS
86.00	1.57	mS
87.00	1.579	mS
88.00	1.579	mS
89.00	1.579	mS
90.00	1.571	mS
91.00	1.571	mS
92.00	1.571	mS
93.00	1.561	mS
94.00	1.561	mS
95.00	1.561	mS
96.00	1.576	mS
97.00	1.576	mS
98.00	1.576	mS
99.00	1.576	mS
100.00	1.576	mS
101.00	1.584	mS
102.00	1.584	mS
103.00	1.59	mS
104.00	1.59	mS
105.00	1.59	mS
106.00	1.587	mS
107.00	1.587	mS
108.00	1.591	mS
109.00	1.591	mS
110.00	1.591	mS
111.00	1.6	mS
112.00	1.6	mS
113.00	1.598	mS
114.00	1.598	mS
115.00	1.598	mS
116.00	1.585	mS
117.00	1.585	mS
118.00	1.599	mS
119.00	1.599	mS
120.00	1.599	mS
121.00	1.6	mS
122.00	1.6	mS
123.00	1.6	mS
124.00	1.605	mS
125.00	1.605	mS
126.00	1.605	mS
127.00	1.602	mS
128.00	1.602	mS
129.00	1.607	mS
130.00	1.607	mS
131.00	1.607	mS
132.00	1.61	mS
133.00	1.61	mS
134.00	1.61	mS
135.00	1.605	mS
136.00	1.605	mS
137.00	1.62	mS
138.00	1.62	mS
139.00	1.62	mS
140.00	1.614	mS
141.00	1.614	mS
142.00	1.608	mS
143.00	1.608	mS
144.00	1.608	mS
145.00	1.613	mS
146.00	1.613	mS
147.00	1.617	mS
148.00	1.617	mS
149.00	1.614	mS
150.00	1.614	mS
151.00	1.614	mS
152.00	1.628	mS
153.00	1.628	mS
154.00	1.627	mS
155.00	1.627	mS
156.00	1.627	mS
157.00	1.628	mS
158.00	1.628	mS
159.00	1.628	mS
160.00	1.623	mS
161.00	1.623	mS
162.00	1.621	mS
163.00	1.621	mS
164.00	1.621	mS
165.00	1.619	mS
166.00	1.619	mS
167.00	1.619	mS
168.00	1.619	mS
169.00	1.619	mS
170.00	1.62	mS
171.00	1.62	mS
172.00	1.619	mS
173.00	1.619	mS
174.00	1.619	mS
175.00	1.622	mS
176.00	1.622	mS
177.00	1.625	mS
178.00	1.625	mS
179.00	1.625	mS
180.00	1.623	mS
181.00	1.623	mS
182.00	1.618	mS
183.00	1.618	mS
184.00	1.618	mS
185.00	1.625	mS
186.00	1.625	mS
187.00	1.626	mS
188.00	1.626	mS
189.00	1.626	mS
190.00	1.625	mS
191.00	1.625	mS
192.00	1.625	mS
193.00	1.612	mS
194.00	1.612	mS
195.00	1.616	mS
196.00	1.616	mS
197.00	1.616	mS
198.00	1.61	mS
199.00	1.61	mS
