Trial: 14
Speed Setting: 2
KCl per pour: 11.3 gram
Number of pours: 3

Column one contains time in seconds, column two contains the measured conductivity at the bottom of the tank.

0.00	0.168	mS
1.00	0.168	mS
2.00	0.169	mS
3.00	0.169	mS
4.00	0.169	mS
5.00	0.17	mS
6.00	0.17	mS
7.00	0.17	mS
8.00	0.17	mS
9.00	0.171	mS
10.00	0.171	mS
11.00	0.171	mS
12.00	0.173	mS
13.00	0.173	mS
14.00	0.173	mS
15.00	0.173	mS
16.00	0.173	mS
17.00	0.174	mS
18.00	0.174	mS
19.00	0.174	mS
20.00	0.174	mS
21.00	0.174	mS
22.00	0.208	mS
23.00	0.208	mS
24.00	0.208	mS
25.00	0.265	mS
26.00	0.265	mS
27.00	0.288	mS
28.00	0.288	mS
29.00	0.288	mS
30.00	0.298	mS
31.00	0.298	mS
32.00	0.321	mS
33.00	0.321	mS
34.00	0.321	mS
35.00	0.418	mS
36.00	0.418	mS
37.00	0.486	mS
38.00	0.486	mS
39.00	0.486	mS
40.00	0.524	mS
41.00	0.524	mS
42.00	0.532	mS
43.00	0.532	mS
44.00	0.603	mS
45.00	0.603	mS
46.00	0.603	mS
47.00	0.637	mS
48.00	0.637	mS
49.00	0.653	mS
50.00	0.653	mS
51.00	0.653	mS
52.00	0.683	mS
53.00	0.683	mS
54.00	0.69	mS
55.00	0.69	mS
56.00	0.69	mS
57.00	0.702	mS
58.00	0.702	mS
59.00	0.707	mS
60.00	0.707	mS
61.00	0.707	mS
62.00	0.717	mS
63.00	0.717	mS
64.00	0.724	mS
65.00	0.724	mS
66.00	0.724	mS
67.00	0.718	mS
68.00	0.718	mS
69.00	0.713	mS
70.00	0.713	mS
71.00	0.724	mS
72.00	0.724	mS
73.00	0.724	mS
74.00	0.732	mS
75.00	0.732	mS
76.00	0.732	mS
77.00	0.745	mS
78.00	0.745	mS
79.00	0.744	mS
80.00	0.744	mS
81.00	0.744	mS
82.00	0.748	mS
83.00	0.748	mS
84.00	0.753	mS
85.00	0.753	mS
86.00	0.757	mS
87.00	0.757	mS
88.00	0.757	mS
89.00	0.757	mS
90.00	0.757	mS
91.00	0.757	mS
92.00	0.756	mS
93.00	0.756	mS
94.00	0.758	mS
95.00	0.758	mS
96.00	0.758	mS
97.00	0.755	mS
98.00	0.755	mS
99.00	0.764	mS
100.00	0.764	mS
101.00	0.764	mS
102.00	0.766	mS
103.00	0.766	mS
104.00	0.766	mS
105.00	0.766	mS
106.00	0.766	mS
107.00	0.765	mS
108.00	0.765	mS
109.00	0.77	mS
110.00	0.77	mS
111.00	0.77	mS
112.00	0.771	mS
113.00	0.771	mS
114.00	0.774	mS
115.00	0.774	mS
116.00	0.774	mS
117.00	0.774	mS
118.00	0.774	mS
119.00	0.777	mS
120.00	0.777	mS
121.00	0.777	mS
122.00	0.779	mS
123.00	0.779	mS
124.00	0.778	mS
125.00	0.778	mS
126.00	0.778	mS
127.00	0.778	mS
128.00	0.778	mS
129.00	0.777	mS
130.00	0.777	mS
131.00	0.777	mS
132.00	0.778	mS
133.00	0.778	mS
134.00	0.779	mS
135.00	0.779	mS
136.00	0.779	mS
137.00	0.783	mS
138.00	0.783	mS
139.00	0.783	mS
140.00	0.783	mS
141.00	0.783	mS
142.00	0.788	mS
143.00	0.788	mS
144.00	0.785	mS
145.00	0.785	mS
146.00	0.785	mS
147.00	0.785	mS
148.00	0.785	mS
149.00	0.786	mS
150.00	0.786	mS
151.00	0.786	mS
152.00	0.785	mS
153.00	0.785	mS
154.00	0.786	mS
155.00	0.786	mS
156.00	0.786	mS
157.00	0.794	mS
158.00	0.794	mS
159.00	0.788	mS
160.00	0.788	mS
161.00	0.788	mS
162.00	0.791	mS
163.00	0.791	mS
164.00	0.782	mS
165.00	0.782	mS
166.00	0.782	mS
167.00	0.784	mS
168.00	0.784	mS
169.00	0.785	mS
170.00	0.785	mS
171.00	0.785	mS
172.00	0.786	mS
173.00	0.786	mS
174.00	0.79	mS
175.00	0.79	mS
176.00	0.785	mS
177.00	0.785	mS
178.00	0.785	mS
179.00	0.785	mS
180.00	0.785	mS
181.00	0.785	mS
182.00	0.785	mS
183.00	0.785	mS
184.00	0.792	mS
185.00	0.792	mS
186.00	0.792	mS
187.00	0.79	mS
188.00	0.79	mS
189.00	0.798	mS
190.00	0.798	mS
191.00	0.792	mS
192.00	0.792	mS
193.00	0.792	mS
194.00	0.792	mS
195.00	0.792	mS
196.00	0.792	mS
197.00	0.785	mS
198.00	0.785	mS
199.00	0.8	mS
200.00	0.8	mS
201.00	0.8	mS
202.00	0.813	mS
203.00	0.813	mS
204.00	0.867	mS
205.00	0.867	mS
206.00	0.867	mS
207.00	0.881	mS
208.00	0.881	mS
209.00	0.982	mS
210.00	0.982	mS
211.00	0.982	mS
212.00	1.095	mS
213.00	1.095	mS
214.00	1.071	mS
215.00	1.071	mS
216.00	1.071	mS
217.00	1.109	mS
218.00	1.109	mS
219.00	1.138	mS
220.00	1.138	mS
221.00	1.138	mS
222.00	1.147	mS
223.00	1.147	mS
224.00	1.187	mS
225.00	1.187	mS
226.00	1.228	mS
227.00	1.228	mS
228.00	1.228	mS
229.00	1.244	mS
230.00	1.244	mS
231.00	1.254	mS
232.00	1.254	mS
233.00	1.254	mS
234.00	1.247	mS
235.00	1.247	mS
236.00	1.255	mS
237.00	1.255	mS
238.00	1.255	mS
239.00	1.268	mS
240.00	1.268	mS
241.00	1.248	mS
242.00	1.248	mS
243.00	1.254	mS
244.00	1.254	mS
245.00	1.254	mS
246.00	1.267	mS
247.00	1.267	mS
248.00	1.272	mS
249.00	1.272	mS
250.00	1.272	mS
251.00	1.253	mS
252.00	1.253	mS
253.00	1.27	mS
254.00	1.27	mS
255.00	1.27	mS
256.00	1.287	mS
257.00	1.287	mS
258.00	1.288	mS
259.00	1.288	mS
260.00	1.288	mS
261.00	1.284	mS
262.00	1.284	mS
263.00	1.261	mS
264.00	1.261	mS
265.00	1.261	mS
266.00	1.282	mS
267.00	1.282	mS
268.00	1.267	mS
269.00	1.267	mS
270.00	1.267	mS
271.00	1.26	mS
272.00	1.26	mS
273.00	1.25	mS
274.00	1.25	mS
275.00	1.25	mS
276.00	1.255	mS
277.00	1.255	mS
278.00	1.25	mS
279.00	1.25	mS
280.00	1.25	mS
281.00	1.251	mS
282.00	1.251	mS
283.00	1.26	mS
284.00	1.26	mS
285.00	1.26	mS
286.00	1.254	mS
287.00	1.254	mS
288.00	1.238	mS
289.00	1.238	mS
290.00	1.238	mS
291.00	1.248	mS
292.00	1.248	mS
293.00	1.254	mS
294.00	1.254	mS
295.00	1.252	mS
296.00	1.252	mS
297.00	1.252	mS
298.00	1.26	mS
299.00	1.26	mS
300.00	1.26	mS
301.00	1.26	mS
302.00	1.26	mS
303.00	1.266	mS
304.00	1.266	mS
305.00	1.266	mS
306.00	1.264	mS
307.00	1.264	mS
308.00	1.267	mS
309.00	1.267	mS
310.00	1.267	mS
311.00	1.26	mS
312.00	1.26	mS
313.00	1.262	mS
314.00	1.262	mS
315.00	1.262	mS
316.00	1.263	mS
317.00	1.263	mS
318.00	1.26	mS
319.00	1.26	mS
320.00	1.26	mS
321.00	1.252	mS
322.00	1.252	mS
323.00	1.264	mS
324.00	1.264	mS
325.00	1.264	mS
326.00	1.225	mS
327.00	1.225	mS
328.00	1.252	mS
329.00	1.252	mS
330.00	1.252	mS
331.00	1.259	mS
332.00	1.259	mS
333.00	1.247	mS
334.00	1.247	mS
335.00	1.247	mS
336.00	1.236	mS
337.00	1.236	mS
338.00	1.237	mS
339.00	1.237	mS
340.00	1.237	mS
341.00	1.241	mS
342.00	1.241	mS
343.00	1.248	mS
344.00	1.248	mS
345.00	1.248	mS
346.00	1.251	mS
347.00	1.251	mS
348.00	1.25	mS
349.00	1.25	mS
350.00	1.25	mS
351.00	1.251	mS
352.00	1.251	mS
353.00	1.255	mS
354.00	1.255	mS
355.00	1.255	mS
356.00	1.247	mS
357.00	1.247	mS
358.00	1.244	mS
359.00	1.244	mS
360.00	1.244	mS
361.00	1.249	mS
362.00	1.249	mS
363.00	1.26	mS
364.00	1.26	mS
365.00	1.26	mS
366.00	1.254	mS
367.00	1.254	mS
368.00	1.228	mS
369.00	1.228	mS
370.00	1.228	mS
371.00	1.213	mS
372.00	1.213	mS
373.00	1.219	mS
374.00	1.219	mS
375.00	1.219	mS
376.00	1.228	mS
377.00	1.228	mS
378.00	1.225	mS
379.00	1.225	mS
380.00	1.225	mS
381.00	1.223	mS
382.00	1.223	mS
383.00	1.233	mS
384.00	1.233	mS
385.00	1.273	mS
386.00	1.273	mS
387.00	1.273	mS
388.00	1.309	mS
389.00	1.309	mS
390.00	1.309	mS
391.00	1.387	mS
392.00	1.387	mS
393.00	1.444	mS
394.00	1.444	mS
395.00	1.444	mS
396.00	1.491	mS
397.00	1.491	mS
398.00	1.508	mS
399.00	1.508	mS
400.00	1.508	mS
401.00	1.557	mS
402.00	1.557	mS
403.00	1.584	mS
404.00	1.584	mS
405.00	1.584	mS
406.00	1.596	mS
407.00	1.596	mS
408.00	1.607	mS
409.00	1.607	mS
410.00	1.607	mS
411.00	1.621	mS
412.00	1.621	mS
413.00	1.624	mS
414.00	1.624	mS
415.00	1.624	mS
416.00	1.661	mS
417.00	1.661	mS
418.00	1.677	mS
419.00	1.677	mS
420.00	1.677	mS
421.00	1.681	mS
422.00	1.681	mS
423.00	1.684	mS
424.00	1.684	mS
425.00	1.679	mS
426.00	1.679	mS
427.00	1.679	mS
428.00	1.7	mS
429.00	1.7	mS
430.00	1.72	mS
431.00	1.72	mS
432.00	1.72	mS
433.00	1.72	mS
434.00	1.72	mS
435.00	1.704	mS
436.00	1.704	mS
437.00	1.705	mS
438.00	1.705	mS
439.00	1.705	mS
440.00	1.711	mS
441.00	1.711	mS
442.00	1.707	mS
443.00	1.707	mS
444.00	1.707	mS
445.00	1.722	mS
446.00	1.722	mS
447.00	1.73	mS
448.00	1.73	mS
449.00	1.737	mS
450.00	1.737	mS
451.00	1.737	mS
452.00	1.734	mS
453.00	1.734	mS
454.00	1.738	mS
455.00	1.738	mS
456.00	1.738	mS
457.00	1.736	mS
458.00	1.736	mS
459.00	1.752	mS
460.00	1.752	mS
461.00	1.752	mS
462.00	1.749	mS
463.00	1.749	mS
464.00	1.741	mS
465.00	1.741	mS
466.00	1.748	mS
467.00	1.748	mS
468.00	1.748	mS
469.00	1.754	mS
470.00	1.754	mS
471.00	1.764	mS
472.00	1.764	mS
473.00	1.764	mS
474.00	1.765	mS
475.00	1.765	mS
476.00	1.763	mS
477.00	1.763	mS
478.00	1.763	mS
479.00	1.755	mS
480.00	1.755	mS
481.00	1.757	mS
482.00	1.757	mS
483.00	1.757	mS
484.00	1.766	mS
485.00	1.766	mS
486.00	1.761	mS
487.00	1.761	mS
488.00	1.761	mS
489.00	1.735	mS
490.00	1.735	mS
491.00	1.728	mS
492.00	1.728	mS
493.00	1.728	mS
494.00	1.737	mS
495.00	1.737	mS
496.00	1.751	mS
497.00	1.751	mS
498.00	1.751	mS
499.00	1.73	mS
500.00	1.73	mS
501.00	1.708	mS
502.00	1.708	mS
503.00	1.742	mS
504.00	1.742	mS
505.00	1.742	mS
506.00	1.756	mS
507.00	1.756	mS
508.00	1.756	mS
509.00	1.765	mS
510.00	1.765	mS
511.00	1.753	mS
512.00	1.753	mS
513.00	1.753	mS
514.00	1.757	mS
515.00	1.757	mS
516.00	1.744	mS
517.00	1.744	mS
518.00	1.744	mS
519.00	1.712	mS
520.00	1.712	mS
521.00	1.746	mS
522.00	1.746	mS
523.00	1.746	mS
524.00	1.752	mS
525.00	1.752	mS
526.00	1.733	mS
527.00	1.733	mS
528.00	1.709	mS
529.00	1.709	mS
530.00	1.709	mS
531.00	1.721	mS
532.00	1.721	mS
533.00	1.724	mS
534.00	1.724	mS
535.00	1.724	mS
536.00	1.716	mS
537.00	1.716	mS
538.00	1.736	mS
539.00	1.736	mS
540.00	1.742	mS
541.00	1.742	mS
542.00	1.742	mS
543.00	1.742	mS
544.00	1.742	mS
545.00	1.74	mS
546.00	1.74	mS
547.00	1.74	mS
548.00	1.74	mS
