Trial: 10
Speed Setting: 5
KCl per pour: 34.0 gram
Number of pours: 1

Column one contains time in seconds, column two contains the measured conductivity at the bottom of the tank.

0.00	0.183	mS
1.00	0.183	mS
2.00	0.184	mS
3.00	0.184	mS
4.00	0.184	mS
5.00	0.183	mS
6.00	0.183	mS
7.00	0.184	mS
8.00	0.184	mS
9.00	0.184	mS
10.00	0.181	mS
11.00	0.181	mS
12.00	0.181	mS
13.00	0.181	mS
14.00	0.181	mS
15.00	0.184	mS
16.00	0.184	mS
17.00	0.184	mS
18.00	0.181	mS
19.00	0.181	mS
20.00	0.181	mS
21.00	0.185	mS
22.00	0.185	mS
23.00	0.185	mS
24.00	0.185	mS
25.00	0.185	mS
26.00	0.185	mS
27.00	0.614	mS
28.00	0.614	mS
29.00	0.614	mS
30.00	1.053	mS
31.00	1.053	mS
32.00	1.053	mS
33.00	1.238	mS
34.00	1.238	mS
35.00	1.33	mS
36.00	1.33	mS
37.00	1.33	mS
38.00	1.432	mS
39.00	1.432	mS
40.00	1.432	mS
41.00	1.422	mS
42.00	1.422	mS
43.00	1.428	mS
44.00	1.428	mS
45.00	1.428	mS
46.00	1.51	mS
47.00	1.51	mS
48.00	1.546	mS
49.00	1.546	mS
50.00	1.546	mS
51.00	1.593	mS
52.00	1.593	mS
53.00	1.593	mS
54.00	1.6	mS
55.00	1.6	mS
56.00	1.6	mS
57.00	1.634	mS
58.00	1.634	mS
59.00	1.634	mS
60.00	1.582	mS
61.00	1.582	mS
62.00	1.633	mS
63.00	1.633	mS
64.00	1.633	mS
65.00	1.66	mS
66.00	1.66	mS
67.00	1.66	mS
68.00	1.66	mS
69.00	1.66	mS
70.00	1.66	mS
71.00	1.66	mS
72.00	1.66	mS
75.00	1.66	mS
76.00	1.66	mS
77.00	1.66	mS
78.00	1.66	mS
79.00	1.714	mS
80.00	1.712	mS
81.00	1.712	mS
82.00	1.712	mS
83.00	1.722	mS
84.00	1.722	mS
85.00	1.716	mS
86.00	1.716	mS
87.00	1.716	mS
88.00	1.728	mS
89.00	1.728	mS
90.00	1.719	mS
91.00	1.719	mS
92.00	1.719	mS
93.00	1.726	mS
94.00	1.726	mS
95.00	1.72	mS
96.00	1.72	mS
97.00	1.72	mS
98.00	1.712	mS
99.00	1.712	mS
100.00	1.72	mS
101.00	1.72	mS
102.00	1.72	mS
103.00	1.726	mS
104.00	1.726	mS
105.00	1.725	mS
106.00	1.725	mS
107.00	1.725	mS
108.00	1.73	mS
109.00	1.73	mS
110.00	1.733	mS
111.00	1.733	mS
112.00	1.733	mS
113.00	1.735	mS
114.00	1.735	mS
115.00	1.721	mS
116.00	1.721	mS
117.00	1.721	mS
118.00	1.733	mS
119.00	1.733	mS
120.00	1.733	mS
121.00	1.735	mS
122.00	1.735	mS
123.00	1.735	mS
124.00	1.741	mS
125.00	1.741	mS
126.00	1.741	mS
127.00	1.738	mS
128.00	1.738	mS
129.00	1.738	mS
130.00	1.735	mS
131.00	1.735	mS
132.00	1.735	mS
133.00	1.739	mS
134.00	1.739	mS
135.00	1.724	mS
136.00	1.724	mS
137.00	1.724	mS
138.00	1.722	mS
139.00	1.722	mS
140.00	1.735	mS
141.00	1.735	mS
142.00	1.741	mS
143.00	1.741	mS
144.00	1.741	mS
145.00	1.735	mS
146.00	1.735	mS
147.00	1.736	mS
148.00	1.736	mS
149.00	1.736	mS
150.00	1.739	mS
151.00	1.739	mS
152.00	1.747	mS
153.00	1.747	mS
154.00	1.747	mS
155.00	1.739	mS
156.00	1.739	mS
157.00	1.729	mS
158.00	1.729	mS
159.00	1.736	mS
160.00	1.736	mS
161.00	1.736	mS
162.00	1.742	mS
163.00	1.742	mS
164.00	1.742	mS
165.00	1.742	mS
166.00	1.742	mS
167.00	1.742	mS
168.00	1.739	mS
169.00	1.739	mS
170.00	1.742	mS
171.00	1.742	mS
172.00	1.742	mS
173.00	1.736	mS
174.00	1.736	mS
175.00	1.732	mS
176.00	1.732	mS
177.00	1.732	mS
178.00	1.724	mS
179.00	1.724	mS
180.00	1.721	mS
181.00	1.721	mS
182.00	1.721	mS
183.00	1.725	mS
184.00	1.725	mS
185.00	1.732	mS
186.00	1.732	mS
187.00	1.732	mS
188.00	1.738	mS
189.00	1.738	mS
190.00	1.738	mS
191.00	1.738	mS
192.00	1.738	mS
193.00	1.745	mS
194.00	1.745	mS
195.00	1.745	mS
196.00	1.747	mS
197.00	1.747	mS
198.00	1.747	mS
199.00	1.744	mS
200.00	1.744	mS
