Trial: 16
Speed Setting: 8
KCl per pour: 11.3 gram
Number of pours: 3

Column one contains time in seconds, column two contains the measured conductivity at the bottom of the tank.

0.00	0.19	mS
1.00	0.19	mS
2.00	0.192	mS
3.00	0.192	mS
4.00	0.19	mS
5.00	0.19	mS
6.00	0.19	mS
7.00	0.187	mS
8.00	0.187	mS
9.00	0.191	mS
10.00	0.191	mS
11.00	0.191	mS
12.00	0.189	mS
13.00	0.189	mS
14.00	0.258	mS
15.00	0.258	mS
16.00	0.258	mS
17.00	0.391	mS
18.00	0.391	mS
19.00	0.391	mS
20.00	0.456	mS
21.00	0.456	mS
22.00	0.51	mS
23.00	0.51	mS
24.00	0.51	mS
25.00	0.546	mS
26.00	0.546	mS
27.00	0.546	mS
28.00	0.579	mS
29.00	0.579	mS
30.00	0.59	mS
31.00	0.59	mS
32.00	0.59	mS
33.00	0.609	mS
34.00	0.609	mS
35.00	0.609	mS
36.00	0.62	mS
37.00	0.62	mS
38.00	0.628	mS
39.00	0.628	mS
40.00	0.63	mS
41.00	0.63	mS
42.00	0.63	mS
43.00	0.647	mS
44.00	0.647	mS
45.00	0.647	mS
46.00	0.657	mS
47.00	0.657	mS
48.00	0.663	mS
49.00	0.663	mS
50.00	0.681	mS
51.00	0.681	mS
52.00	0.681	mS
53.00	0.676	mS
54.00	0.676	mS
55.00	0.676	mS
56.00	0.681	mS
57.00	0.681	mS
58.00	0.681	mS
59.00	0.688	mS
60.00	0.688	mS
61.00	0.688	mS
62.00	0.691	mS
63.00	0.691	mS
64.00	0.691	mS
65.00	0.695	mS
66.00	0.695	mS
67.00	0.701	mS
68.00	0.701	mS
69.00	0.7	mS
70.00	0.7	mS
71.00	0.7	mS
72.00	0.699	mS
73.00	0.699	mS
74.00	0.704	mS
75.00	0.704	mS
76.00	0.704	mS
77.00	0.701	mS
78.00	0.701	mS
79.00	0.705	mS
80.00	0.705	mS
81.00	0.705	mS
82.00	0.706	mS
83.00	0.706	mS
84.00	0.706	mS
85.00	0.708	mS
86.00	0.708	mS
87.00	0.709	mS
88.00	0.709	mS
89.00	0.713	mS
90.00	0.713	mS
91.00	0.713	mS
92.00	0.708	mS
93.00	0.708	mS
94.00	0.708	mS
95.00	0.714	mS
96.00	0.714	mS
97.00	0.714	mS
98.00	0.71	mS
99.00	0.71	mS
100.00	0.71	mS
101.00	0.711	mS
102.00	0.711	mS
103.00	0.713	mS
104.00	0.713	mS
105.00	0.713	mS
106.00	0.713	mS
107.00	0.713	mS
108.00	0.71	mS
109.00	0.71	mS
110.00	0.71	mS
111.00	0.712	mS
112.00	0.712	mS
113.00	0.712	mS
114.00	0.714	mS
115.00	0.714	mS
116.00	0.713	mS
117.00	0.713	mS
118.00	0.716	mS
119.00	0.716	mS
120.00	0.716	mS
121.00	0.716	mS
122.00	0.716	mS
123.00	0.716	mS
124.00	0.716	mS
125.00	0.716	mS
126.00	0.716	mS
127.00	0.716	mS
128.00	0.716	mS
129.00	0.716	mS
130.00	0.716	mS
131.00	0.719	mS
132.00	0.719	mS
133.00	0.719	mS
134.00	0.719	mS
135.00	0.719	mS
136.00	0.717	mS
137.00	0.717	mS
138.00	0.717	mS
139.00	0.717	mS
140.00	0.717	mS
141.00	0.717	mS
142.00	0.717	mS
143.00	0.718	mS
144.00	0.718	mS
145.00	0.718	mS
146.00	0.719	mS
147.00	0.719	mS
148.00	0.719	mS
149.00	0.721	mS
150.00	0.721	mS
151.00	0.718	mS
152.00	0.718	mS
153.00	0.718	mS
154.00	0.718	mS
155.00	0.718	mS
156.00	0.722	mS
157.00	0.722	mS
158.00	0.723	mS
159.00	0.723	mS
160.00	0.723	mS
161.00	0.719	mS
162.00	0.719	mS
163.00	0.719	mS
164.00	0.72	mS
165.00	0.72	mS
166.00	0.717	mS
167.00	0.717	mS
168.00	0.717	mS
169.00	0.72	mS
170.00	0.72	mS
171.00	0.721	mS
172.00	0.721	mS
173.00	0.721	mS
174.00	0.721	mS
175.00	0.721	mS
176.00	0.72	mS
177.00	0.72	mS
178.00	0.718	mS
179.00	0.718	mS
180.00	0.718	mS
181.00	0.717	mS
182.00	0.717	mS
183.00	0.717	mS
184.00	0.717	mS
185.00	0.717	mS
186.00	0.717	mS
187.00	0.717	mS
188.00	0.717	mS
189.00	0.717	mS
190.00	0.717	mS
191.00	0.717	mS
192.00	0.717	mS
193.00	0.738	mS
194.00	0.738	mS
195.00	0.738	mS
196.00	0.856	mS
197.00	0.856	mS
198.00	0.975	mS
199.00	0.975	mS
200.00	0.975	mS
201.00	1.043	mS
202.00	1.043	mS
203.00	1.043	mS
204.00	1.09	mS
205.00	1.09	mS
206.00	1.123	mS
207.00	1.123	mS
208.00	1.138	mS
209.00	1.138	mS
210.00	1.138	mS
211.00	1.161	mS
212.00	1.161	mS
213.00	1.161	mS
214.00	1.166	mS
215.00	1.166	mS
216.00	1.172	mS
217.00	1.172	mS
218.00	1.172	mS
219.00	1.183	mS
220.00	1.183	mS
221.00	1.187	mS
222.00	1.187	mS
223.00	1.196	mS
224.00	1.196	mS
225.00	1.196	mS
226.00	1.201	mS
227.00	1.201	mS
228.00	1.201	mS
229.00	1.207	mS
230.00	1.207	mS
231.00	1.213	mS
232.00	1.213	mS
233.00	1.213	mS
234.00	1.213	mS
235.00	1.213	mS
236.00	1.219	mS
237.00	1.219	mS
238.00	1.213	mS
239.00	1.213	mS
240.00	1.213	mS
241.00	1.218	mS
242.00	1.218	mS
243.00	1.218	mS
244.00	1.218	mS
245.00	1.218	mS
246.00	1.22	mS
247.00	1.22	mS
248.00	1.219	mS
249.00	1.219	mS
250.00	1.221	mS
251.00	1.221	mS
252.00	1.221	mS
253.00	1.221	mS
254.00	1.221	mS
255.00	1.227	mS
256.00	1.227	mS
257.00	1.227	mS
258.00	1.228	mS
259.00	1.228	mS
260.00	1.232	mS
261.00	1.232	mS
262.00	1.232	mS
263.00	1.231	mS
264.00	1.231	mS
265.00	1.231	mS
266.00	1.231	mS
267.00	1.231	mS
268.00	1.231	mS
269.00	1.231	mS
270.00	1.233	mS
271.00	1.233	mS
272.00	1.233	mS
273.00	1.235	mS
274.00	1.235	mS
275.00	1.237	mS
276.00	1.237	mS
277.00	1.237	mS
278.00	1.24	mS
279.00	1.24	mS
280.00	1.24	mS
281.00	1.242	mS
282.00	1.242	mS
283.00	1.24	mS
284.00	1.24	mS
285.00	1.24	mS
286.00	1.239	mS
287.00	1.239	mS
288.00	1.235	mS
289.00	1.235	mS
290.00	1.235	mS
291.00	1.24	mS
292.00	1.24	mS
293.00	1.24	mS
294.00	1.241	mS
295.00	1.241	mS
296.00	1.242	mS
297.00	1.242	mS
298.00	1.24	mS
299.00	1.24	mS
300.00	1.24	mS
301.00	1.235	mS
302.00	1.235	mS
303.00	1.237	mS
304.00	1.237	mS
305.00	1.237	mS
306.00	1.239	mS
307.00	1.239	mS
308.00	1.239	mS
309.00	1.243	mS
310.00	1.243	mS
311.00	1.244	mS
312.00	1.244	mS
313.00	1.246	mS
314.00	1.246	mS
315.00	1.246	mS
316.00	1.234	mS
317.00	1.234	mS
318.00	1.234	mS
319.00	1.239	mS
320.00	1.239	mS
321.00	1.24	mS
322.00	1.24	mS
323.00	1.24	mS
324.00	1.24	mS
325.00	1.24	mS
326.00	1.24	mS
327.00	1.24	mS
328.00	1.238	mS
329.00	1.238	mS
330.00	1.238	mS
331.00	1.24	mS
332.00	1.24	mS
333.00	1.239	mS
334.00	1.239	mS
335.00	1.239	mS
336.00	1.243	mS
337.00	1.243	mS
338.00	1.241	mS
339.00	1.241	mS
340.00	1.243	mS
341.00	1.243	mS
342.00	1.243	mS
343.00	1.246	mS
344.00	1.246	mS
345.00	1.246	mS
346.00	1.241	mS
347.00	1.241	mS
348.00	1.242	mS
349.00	1.242	mS
350.00	1.242	mS
351.00	1.242	mS
352.00	1.242	mS
353.00	1.243	mS
354.00	1.243	mS
355.00	1.244	mS
356.00	1.244	mS
357.00	1.244	mS
358.00	1.244	mS
359.00	1.244	mS
360.00	1.247	mS
361.00	1.247	mS
362.00	1.247	mS
363.00	1.244	mS
364.00	1.244	mS
365.00	1.246	mS
366.00	1.246	mS
367.00	1.246	mS
368.00	1.247	mS
369.00	1.247	mS
370.00	1.247	mS
371.00	1.248	mS
372.00	1.248	mS
373.00	1.254	mS
374.00	1.254	mS
375.00	1.404	mS
376.00	1.404	mS
377.00	1.404	mS
378.00	1.522	mS
379.00	1.522	mS
380.00	1.572	mS
381.00	1.572	mS
382.00	1.572	mS
383.00	1.647	mS
384.00	1.647	mS
385.00	1.647	mS
386.00	1.677	mS
387.00	1.677	mS
388.00	1.68	mS
389.00	1.68	mS
390.00	1.715	mS
391.00	1.715	mS
392.00	1.715	mS
393.00	1.725	mS
394.00	1.725	mS
395.00	1.725	mS
396.00	1.723	mS
397.00	1.723	mS
398.00	1.74	mS
399.00	1.74	mS
400.00	1.74	mS
401.00	1.745	mS
402.00	1.745	mS
403.00	1.752	mS
404.00	1.752	mS
405.00	1.761	mS
406.00	1.761	mS
407.00	1.761	mS
408.00	1.749	mS
409.00	1.749	mS
410.00	1.749	mS
411.00	1.751	mS
412.00	1.751	mS
413.00	1.757	mS
414.00	1.757	mS
415.00	1.758	mS
416.00	1.758	mS
417.00	1.758	mS
418.00	1.771	mS
419.00	1.771	mS
420.00	1.771	mS
421.00	1.771	mS
422.00	1.771	mS
423.00	1.772	mS
424.00	1.772	mS
425.00	1.772	mS
426.00	1.775	mS
427.00	1.775	mS
428.00	1.784	mS
429.00	1.784	mS
430.00	1.784	mS
431.00	1.784	mS
432.00	1.784	mS
433.00	1.784	mS
434.00	1.784	mS
435.00	1.784	mS
436.00	1.785	mS
437.00	1.785	mS
438.00	1.785	mS
439.00	1.785	mS
440.00	1.785	mS
441.00	1.787	mS
442.00	1.787	mS
443.00	1.782	mS
444.00	1.782	mS
445.00	1.784	mS
446.00	1.784	mS
447.00	1.784	mS
448.00	1.787	mS
449.00	1.787	mS
450.00	1.787	mS
451.00	1.787	mS
452.00	1.787	mS
453.00	1.792	mS
454.00	1.792	mS
455.00	1.793	mS
456.00	1.793	mS
457.00	1.793	mS
458.00	1.792	mS
459.00	1.792	mS
460.00	1.792	mS
461.00	1.793	mS
462.00	1.793	mS
463.00	1.798	mS
464.00	1.798	mS
465.00	1.8	mS
466.00	1.8	mS
467.00	1.8	mS
468.00	1.797	mS
469.00	1.797	mS
470.00	1.796	mS
471.00	1.796	mS
472.00	1.796	mS
473.00	1.793	mS
474.00	1.793	mS
475.00	1.793	mS
476.00	1.791	mS
477.00	1.791	mS
478.00	1.791	mS
479.00	1.791	mS
480.00	1.791	mS
481.00	1.79	mS
482.00	1.79	mS
483.00	1.791	mS
484.00	1.791	mS
485.00	1.791	mS
486.00	1.798	mS
487.00	1.798	mS
488.00	1.798	mS
489.00	1.799	mS
490.00	1.799	mS
491.00	1.797	mS
492.00	1.797	mS
493.00	1.796	mS
494.00	1.796	mS
495.00	1.796	mS
496.00	1.796	mS
497.00	1.796	mS
498.00	1.792	mS
499.00	1.792	mS
500.00	1.792	mS
501.00	1.793	mS
502.00	1.793	mS
503.00	1.793	mS
504.00	1.792	mS
505.00	1.792	mS
506.00	1.794	mS
507.00	1.794	mS
508.00	1.791	mS
509.00	1.791	mS
510.00	1.791	mS
511.00	1.791	mS
512.00	1.791	mS
513.00	1.791	mS
514.00	1.798	mS
515.00	1.798	mS
516.00	1.795	mS
517.00	1.795	mS
518.00	1.795	mS
519.00	1.8	mS
520.00	1.8	mS
521.00	1.801	mS
522.00	1.801	mS
523.00	1.8	mS
524.00	1.8	mS
525.00	1.8	mS
526.00	1.798	mS
527.00	1.798	mS
528.00	1.798	mS
529.00	1.798	mS
530.00	1.798	mS
531.00	1.798	mS
532.00	1.798	mS
533.00	1.802	mS
534.00	1.802	mS
535.00	1.8	mS
536.00	1.8	mS
537.00	1.8	mS
538.00	1.804	mS
539.00	1.804	mS
540.00	1.804	mS
541.00	1.806	mS
542.00	1.806	mS
543.00	1.808	mS
544.00	1.808	mS
545.00	1.808	mS
546.00	1.807	mS
547.00	1.807	mS
548.00	1.798	mS
549.00	1.798	mS
