Trial: 9
Speed Setting: 2
KCl per pour: 34.0 gram
Number of pours: 1

Column one contains time in seconds, column two contains the measured conductivity at the bottom of the tank.

0.00	0.17	mS
1.00	0.17	mS
2.00	0.17	mS
3.00	0.17	mS
4.00	0.17	mS
5.00	0.173	mS
6.00	0.173	mS
7.00	0.173	mS
8.00	0.173	mS
9.00	0.173	mS
10.00	0.174	mS
11.00	0.174	mS
12.00	0.174	mS
13.00	0.174	mS
14.00	0.174	mS
15.00	0.174	mS
16.00	0.174	mS
17.00	0.174	mS
18.00	0.174	mS
19.00	0.174	mS
20.00	0.175	mS
21.00	0.175	mS
22.00	0.177	mS
23.00	0.177	mS
24.00	0.177	mS
25.00	0.196	mS
26.00	0.196	mS
27.00	0.217	mS
28.00	0.217	mS
29.00	0.217	mS
30.00	0.259	mS
31.00	0.259	mS
32.00	0.332	mS
33.00	0.332	mS
34.00	0.332	mS
35.00	0.38	mS
36.00	0.38	mS
37.00	0.471	mS
38.00	0.471	mS
39.00	0.471	mS
40.00	0.661	mS
41.00	0.661	mS
42.00	0.835	mS
43.00	0.835	mS
44.00	0.835	mS
45.00	1.012	mS
46.00	1.012	mS
47.00	1.117	mS
48.00	1.117	mS
49.00	1.117	mS
50.00	1.351	mS
51.00	1.351	mS
52.00	1.584	mS
53.00	1.584	mS
54.00	1.584	mS
55.00	1.615	mS
56.00	1.615	mS
57.00	1.556	mS
58.00	1.556	mS
59.00	1.556	mS
60.00	1.532	mS
61.00	1.532	mS
62.00	1.631	mS
63.00	1.631	mS
64.00	1.631	mS
65.00	1.595	mS
66.00	1.595	mS
67.00	1.722	mS
68.00	1.722	mS
69.00	1.722	mS
70.00	1.732	mS
71.00	1.732	mS
72.00	1.67	mS
73.00	1.67	mS
74.00	1.67	mS
75.00	1.634	mS
76.00	1.634	mS
77.00	1.69	mS
78.00	1.69	mS
79.00	1.69	mS
80.00	1.727	mS
81.00	1.727	mS
82.00	1.751	mS
83.00	1.751	mS
84.00	1.751	mS
85.00	1.778	mS
86.00	1.778	mS
87.00	1.734	mS
88.00	1.734	mS
89.00	1.724	mS
90.00	1.724	mS
91.00	1.724	mS
92.00	1.756	mS
93.00	1.756	mS
94.00	1.79	mS
95.00	1.79	mS
96.00	1.79	mS
97.00	1.796	mS
98.00	1.796	mS
99.00	1.82	mS
100.00	1.82	mS
101.00	1.82	mS
102.00	1.761	mS
103.00	1.761	mS
104.00	1.774	mS
105.00	1.774	mS
106.00	1.774	mS
107.00	1.795	mS
108.00	1.795	mS
109.00	1.819	mS
110.00	1.819	mS
111.00	1.819	mS
112.00	1.814	mS
113.00	1.814	mS
114.00	1.814	mS
115.00	1.804	mS
116.00	1.804	mS
117.00	1.799	mS
118.00	1.799	mS
119.00	1.799	mS
120.00	1.827	mS
121.00	1.827	mS
122.00	1.847	mS
123.00	1.847	mS
124.00	1.843	mS
125.00	1.843	mS
126.00	1.843	mS
127.00	1.817	mS
128.00	1.817	mS
129.00	1.798	mS
130.00	1.798	mS
131.00	1.798	mS
132.00	1.84	mS
133.00	1.84	mS
134.00	1.817	mS
135.00	1.817	mS
136.00	1.817	mS
137.00	1.827	mS
138.00	1.827	mS
139.00	1.795	mS
140.00	1.795	mS
141.00	1.795	mS
142.00	1.826	mS
143.00	1.826	mS
144.00	1.853	mS
145.00	1.853	mS
146.00	1.853	mS
147.00	1.853	mS
148.00	1.853	mS
149.00	1.746	mS
150.00	1.746	mS
151.00	1.746	mS
152.00	1.74	mS
153.00	1.74	mS
154.00	1.781	mS
155.00	1.781	mS
156.00	1.781	mS
157.00	1.802	mS
158.00	1.802	mS
159.00	1.805	mS
160.00	1.805	mS
161.00	1.805	mS
162.00	1.818	mS
163.00	1.818	mS
164.00	1.779	mS
165.00	1.779	mS
166.00	1.779	mS
167.00	1.778	mS
168.00	1.778	mS
169.00	1.809	mS
170.00	1.809	mS
171.00	1.809	mS
172.00	1.807	mS
173.00	1.807	mS
174.00	1.8	mS
175.00	1.8	mS
176.00	1.8	mS
177.00	1.788	mS
178.00	1.788	mS
179.00	1.797	mS
180.00	1.797	mS
181.00	1.797	mS
182.00	1.824	mS
183.00	1.824	mS
184.00	1.825	mS
185.00	1.825	mS
186.00	1.825	mS
187.00	1.834	mS
188.00	1.834	mS
189.00	1.841	mS
190.00	1.841	mS
191.00	1.841	mS
